M,AD(M),0.5,0.45,0.4,0.35,0.3,0.25,0.2,0.15,0.1,0.05
5.0,0.187,0.0,0.0,0.0,0.0,0.0,0.0,0.0,0.0,0.0,0.0,0.0
5.05,0.199,0.0,0.0,0.0,0.0,0.0,0.0,0.0,0.0,0.0,0.0,0.0
5.1,0.21,0.0,0.0,0.0,0.0,0.0,0.0,0.0,0.0,0.0,0.0,0.0
5.15,0.223,0.0,0.0,0.0,0.0,0.0,0.0,0.0,0.0,0.0,0.0,0.0
5.2,0.236,0.0,0.0,0.0,0.0,0.0,0.0,0.0,0.0,0.0,0.0,0.0
5.25,0.25,0.0,0.0,0.0,0.0,0.0,0.0,0.0,0.0,0.0,0.0,0.0
5.3,0.265,0.0,0.0,0.0,0.0,0.0,0.0,0.0,0.0,0.0,0.0,0.0
5.35,0.28,0.0,0.0,0.0,0.0,0.0,0.0,0.0,0.0,0.0,0.0,0.0
5.4,0.297,0.0,0.0,0.0,0.0,0.0,0.0,0.0,0.0,0.0,0.0,0.0
5.45,0.315,0.0,0.0,0.0,0.0,0.0,0.0,0.0,0.0,0.0,0.0,0.0
5.5,0.333,0.0,0.0,0.0,0.0,0.0,0.0,0.0,0.0,0.0,0.0,0.0
5.55,0.353,0.003835,0.003735,0.003605,0.003438,0.003228,0.002958,0.002602,0.00213,0.001524,0.000809,0.0
5.6,0.374,0.007045,0.006866,0.006632,0.006336,0.005961,0.005482,0.00485,0.004001,0.002893,0.001553,0.0
5.65,0.396,0.010306,0.010049,0.009715,0.009294,0.008762,0.008082,0.007188,0.00598,0.004367,0.002372,0.0
5.7,0.42,0.012402,0.0121,0.011708,0.011209,0.010589,0.009796,0.008754,0.007336,0.005414,0.002975,0.0
5.75,0.445,0.014547,0.014199,0.013746,0.013179,0.012466,0.011563,0.010377,0.008757,0.006531,0.003636,0.0
5.8,0.471,0.016301,0.015919,0.015424,0.014799,0.014019,0.013032,0.011742,0.009979,0.007519,0.004237,0.0
5.85,0.499,0.034295,0.033502,0.032475,0.031187,0.029588,0.027564,0.024923,0.021312,0.016223,0.009268,0.0
5.9,0.528,0.049997,0.048861,0.047392,0.04555,0.043251,0.040378,0.036637,0.031514,0.024214,0.014021,0.0
5.95,0.56,0.064484,0.063039,0.061167,0.058824,0.055935,0.05229,0.047585,0.041169,0.031931,0.018741,0.0
6.0,0.593,0.075504,0.073842,0.0717,0.069012,0.065656,0.061497,0.056141,0.048787,0.038203,0.022733,0.0
6.05,0.628,0.083467,0.08166,0.079321,0.076396,0.072794,0.068244,0.062433,0.054546,0.043102,0.025985,0.0
6.1,0.665,0.094115,0.092129,0.089558,0.086306,0.082278,0.077298,0.070867,0.062193,0.049501,0.030299,0.0
6.15,0.704,0.133108,0.130362,0.126801,0.122318,0.116744,0.10977,0.100872,0.088851,0.07131,0.044265,0.0
6.2,0.746,0.171989,0.168544,0.164046,0.15836,0.151304,0.142484,0.131236,0.11602,0.093847,0.058998,0.0
6.25,0.79,0.200476,0.196596,0.191522,0.185071,0.176966,0.166896,0.153944,0.136577,0.111249,0.070945,0.0
6.3,0.837,0.230025,0.225737,0.220097,0.212896,0.203866,0.192429,0.177958,0.158438,0.129822,0.083935,0.0
6.35,0.887,0.302176,0.29678,0.289634,0.280447,0.268818,0.254185,0.23536,0.210129,0.173333,0.113616,0.0
6.4,0.939,0.369693,0.363407,0.355076,0.344234,0.330326,0.312746,0.290131,0.259905,0.215549,0.143009,0.0
6.45,0.995,0.406054,0.399485,0.390719,0.379304,0.364601,0.345626,0.321284,0.28851,0.240769,0.161677,0.0
6.5,1.054,0.447428,0.440571,0.431332,0.419215,0.403562,0.383337,0.356793,0.321258,0.269554,0.18336,0.0
6.55,1.117,0.504131,0.496809,0.486929,0.473823,0.456738,0.434593,0.405367,0.366069,0.308536,0.212297,0.0
6.6,1.183,0.567623,0.559883,0.54941,0.535409,0.516815,0.492458,0.460607,0.416659,0.353171,0.245568,0.0
6.65,1.253,0.611254,0.603369,0.592665,0.578371,0.559392,0.533881,0.500093,0.453812,0.386072,0.271496,0.0
6.7,1.327,0.650316,0.642462,0.631699,0.617283,0.597906,0.572011,0.536685,0.488668,0.417368,0.296485,0.0
6.75,1.406,0.676743,0.669068,0.658595,0.644283,0.625081,0.599097,0.563584,0.514192,0.441122,0.316843,0.0
6.8,1.489,0.697312,0.689903,0.679723,0.665829,0.64693,0.62121,0.585941,0.535688,0.46157,0.334637,0.0
6.85,1.577,0.716679,0.709576,0.699819,0.686437,0.667963,0.64252,0.607277,0.557036,0.482126,0.352608,0.0
6.9,1.671,0.733355,0.726567,0.717186,0.704357,0.686666,0.661667,0.62665,0.576895,0.501095,0.369815,0.0
6.95,1.77,0.77192,0.765274,0.756067,0.743429,0.725768,0.700927,0.665254,0.613878,0.535182,0.39825,0.0
7.0,1.874,0.807473,0.801017,0.792027,0.779617,0.76223,0.737509,0.701787,0.649181,0.568383,0.426529,0.0
7.05,1.986,0.825499,0.819394,0.810879,0.799036,0.782238,0.758301,0.723464,0.670898,0.590258,0.44605,0.0
7.1,2.103,0.843351,0.837591,0.829516,0.818183,0.802177,0.778876,0.744676,0.692901,0.611931,0.466063,0.0
7.15,2.228,0.856176,0.850789,0.843259,0.832482,0.817199,0.79491,0.761639,0.711162,0.629785,0.484192,0.0
7.2,2.36,0.868324,0.863315,0.856273,0.846224,0.831722,0.810327,0.778126,0.728516,0.647713,0.501805,0.0
7.25,2.5,0.877822,0.87311,0.86648,0.85716,0.84365,0.823319,0.792344,0.743821,0.664089,0.517603,0.0
7.3,2.648,0.886609,0.882235,0.87609,0.867412,0.85465,0.835678,0.805932,0.758567,0.680302,0.533919,0.0
7.35,2.805,0.899247,0.89516,0.889426,0.881138,0.869298,0.851235,0.823045,0.776804,0.699236,0.553318,0.0
7.4,2.971,0.911734,0.907886,0.902457,0.894739,0.883424,0.866479,0.839676,0.794744,0.717932,0.571969,0.0
7.45,3.147,0.919642,0.916075,0.911075,0.903854,0.893193,0.877082,0.851626,0.808867,0.733178,0.587515,0.0
7.5,3.333,0.926617,0.923286,0.918564,0.911832,0.901993,0.886718,0.862583,0.821966,0.74781,0.602841,0.0
7.55,3.531,0.932158,0.929077,0.924737,0.918523,0.909174,0.894956,0.87197,0.833119,0.761328,0.617726,0.0
7.6,3.74,0.937307,0.934443,0.930365,0.92452,0.915959,0.902459,0.880701,0.843745,0.774502,0.632637,0.0
7.65,3.962,0.940755,0.938122,0.934422,0.929079,0.920921,0.908461,0.888008,0.852317,0.786409,0.645863,0.0
7.7,4.196,0.943904,0.941456,0.937988,0.933,0.925689,0.913794,0.894449,0.860559,0.79726,0.658596,0.0
7.75,4.445,0.950566,0.948311,0.94515,0.940437,0.933452,0.922637,0.9043,0.872002,0.810363,0.673889,0.0
7.8,4.708,0.955646,0.953556,0.950635,0.94639,0.939925,0.92966,0.912502,0.881627,0.821992,0.688502,0.0
7.85,4.987,0.959618,0.957656,0.954898,0.950975,0.945132,0.935605,0.919658,0.890365,0.832622,0.702352,0.0
7.9,5.283,0.963102,0.961282,0.958789,0.955224,0.949713,0.941112,0.925995,0.898284,0.842743,0.716204,0.0
7.95,5.596,0.965485,0.963771,0.961408,0.958057,0.953218,0.945111,0.931398,0.905415,0.851736,0.729332,0.0
8.0,5.928,0.967866,0.966248,0.964004,0.960839,0.95619,0.948993,0.936271,0.911641,0.860514,0.74116,0.0
8.05,6.279,0.977671,0.976153,0.974097,0.971119,0.966652,0.959783,0.947988,0.925139,0.875759,0.758003,0.0
8.1,6.651,0.978301,0.976861,0.974891,0.972143,0.968116,0.961548,0.950769,0.929657,0.882881,0.767458,0.0
8.15,7.045,0.978914,0.977556,0.975698,0.973089,0.969267,0.963311,0.952946,0.933452,0.88942,0.776916,0.0
8.2,7.462,0.979551,0.978271,0.9765,0.974008,0.9704,0.964794,0.95513,0.937218,0.895702,0.786289,0.0
8.25,7.905,0.979996,0.978803,0.977217,0.974965,0.971483,0.966161,0.957353,0.940001,0.901923,0.795496,0.0
8.3,8.373,0.980404,0.979261,0.97773,0.97563,0.97263,0.967494,0.959015,0.942835,0.9072,0.804721,0.0
8.35,8.869,0.980812,0.979723,0.97827,0.976241,0.973344,0.968882,0.96074,0.945735,0.912039,0.813694,0.0
8.4,9.395,0.981214,0.980174,0.978774,0.976849,0.974075,0.969851,0.962438,0.948056,0.916178,0.822887,0.0
8.45,9.951,0.98164,0.98065,0.979308,0.977448,0.974788,0.970735,0.964095,0.950336,0.919961,0.831384,0.0
8.5,10.541,0.981932,0.981,0.97978,0.978083,0.975505,0.971617,0.965178,0.952562,0.923798,0.839834,0.0
8.55,11.166,0.982198,0.981297,0.980112,0.978515,0.976265,0.972485,0.966326,0.954916,0.927312,0.848248,0.0
8.6,11.827,0.982481,0.981612,0.980464,0.978908,0.976724,0.973405,0.967414,0.956409,0.930396,0.855302,0.0
8.65,12.528,0.982753,0.98192,0.980826,0.979325,0.977193,0.974031,0.968545,0.957918,0.933526,0.861747,0.0
8.7,13.27,0.983024,0.982223,0.981162,0.979725,0.97769,0.974598,0.969643,0.959404,0.936764,0.867183,0.0
8.75,14.057,0.983312,0.982543,0.981519,0.980123,0.978154,0.975198,0.970339,0.960906,0.939327,0.872362,0.0
8.8,14.889,0.983616,0.982883,0.981897,0.980545,0.978629,0.975773,0.971076,0.962497,0.941429,0.877712,0.0
8.85,15.772,0.983773,0.983082,0.982209,0.980992,0.979131,0.976345,0.971855,0.963471,0.943596,0.882575,0.0
8.9,16.706,0.983882,0.983204,0.982344,0.981221,0.979663,0.97695,0.972557,0.964453,0.945726,0.887066,0.0
8.95,17.696,0.983997,0.983332,0.982487,0.98138,0.979874,0.977591,0.973301,0.965493,0.947983,0.891674,0.0
9.0,18.745,0.98412,0.983469,0.982638,0.981549,0.980063,0.977922,0.974089,0.96647,0.949739,0.896497,0.0
